#             R [au]        psi_0 [a.u.]        psi_1 [a.u.]        psi_2 [a.u.]        psi_3 [a.u.]      psi_... [a.u.]
    0.000000000000E0    0.000000000000E0
   1.000500250125E-2   1.318170610213E-2
   2.001000500250E-2   2.635667318512E-2
   3.001500750375E-2   3.951830848106E-2
   4.002001000500E-2   5.266017952712E-2
   5.002501250625E-2   6.577601481780E-2
   6.003001500750E-2   7.885970426586E-2
   7.003501750875E-2   9.190529947934E-2
   8.004002001001E-2   1.049070138624E-1
   9.004502251126E-2   1.178592225471E-1
   1.000500250125E-1   1.307564621637E-1
   1.100550275138E-1   1.435934304561E-1
   1.200600300150E-1   1.563649857501E-1
   1.300650325163E-1   1.690661462806E-1
   1.400700350175E-1   1.816920893852E-1
   1.500750375188E-1   1.942381505704E-1
   1.600800400200E-1   2.066998224567E-1
   1.700850425213E-1   2.190727536097E-1
   1.800900450225E-1   2.313527472626E-1
   1.900950475238E-1   2.435357599358E-1
   2.001000500250E-1   2.556178999615E-1
   2.101050525263E-1   2.675954259160E-1
   2.201100550275E-1   2.794647449678E-1
   2.301150575288E-1   2.912224111464E-1
   2.401200600300E-1   3.028651235353E-1
   2.501250625313E-1   3.143897243971E-1
   2.601300650325E-1   3.257931972339E-1
   2.701350675338E-1   3.370726647875E-1
   2.801400700350E-1   3.482253869861E-1
   2.901450725363E-1   3.592487588393E-1
   3.001500750375E-1   3.701403082885E-1
   3.101550775388E-1   3.808976940147E-1
   3.201600800400E-1   3.915187032091E-1
   3.301650825413E-1   4.020012493100E-1
   3.401700850425E-1   4.123433697096E-1
   3.501750875438E-1   4.225432234351E-1
   3.601800900450E-1   4.325990888064E-1
   3.701850925463E-1   4.425093610753E-1
   3.801900950475E-1   4.522725500479E-1
   3.901950975488E-1   4.618872776945E-1
   4.002001000500E-1   4.713522757494E-1
   4.102051025513E-1   4.806663833037E-1
   4.202101050525E-1   4.898285443932E-1
   4.302151075538E-1   4.988378055855E-1
   4.402201100550E-1   5.076933135673E-1
   4.502251125563E-1   5.163943127342E-1
   4.602301150575E-1   5.249401427874E-1
   4.702351175588E-1   5.333302363365E-1
   4.802401200600E-1   5.415641165126E-1
   4.902451225613E-1   5.496413945929E-1
   5.002501250625E-1   5.575617676383E-1
   5.102551275638E-1   5.653250161467E-1
   5.202601300650E-1   5.729310017226E-1
   5.302651325663E-1   5.803796647647E-1
   5.402701350675E-1   5.876710221743E-1
   5.502751375688E-1   5.948051650838E-1
   5.602801400700E-1   6.017822566082E-1
   5.702851425713E-1   6.086025296197E-1
   5.802901450725E-1   6.152662845476E-1
   5.902951475738E-1   6.217738872033E-1
   6.003001500750E-1   6.281257666330E-1
   6.103051525763E-1   6.343224129967E-1
   6.203101550775E-1   6.403643754768E-1
   6.303151575788E-1   6.462522602155E-1
   6.403201600800E-1   6.519867282814E-1
   6.503251625813E-1   6.575684936679E-1
   6.603301650825E-1   6.629983213216E-1
   6.703351675838E-1   6.682770252028E-1
   6.803401700850E-1   6.734054663776E-1
   6.903451725863E-1   6.783845511431E-1
   7.003501750875E-1   6.832152291846E-1
   7.103551775888E-1   6.878984917664E-1
   7.203601800900E-1   6.924353699557E-1
   7.303651825913E-1   6.968269328798E-1
   7.403701850925E-1   7.010742860176E-1
   7.503751875938E-1   7.051785695243E-1
   7.603801900950E-1   7.091409565898E-1
   7.703851925963E-1   7.129626518319E-1
   7.803901950975E-1   7.166448897228E-1
   7.903951975988E-1   7.201889330491E-1
   8.004002001000E-1   7.235960714066E-1
   8.104052026013E-1   7.268676197282E-1
   8.204102051026E-1   7.300049168453E-1
   8.304152076038E-1   7.330093240830E-1
   8.404202101051E-1   7.358822238888E-1
   8.504252126063E-1   7.386250184936E-1
   8.604302151076E-1   7.412391286064E-1
   8.704352176088E-1   7.437259921413E-1
   8.804402201101E-1   7.460870629765E-1
   8.904452226113E-1   7.483238097461E-1
   9.004502251126E-1   7.504377146631E-1
   9.104552276138E-1   7.524302723742E-1
   9.204602301151E-1   7.543029888458E-1
   9.304652326163E-1   7.560573802799E-1
   9.404702351176E-1   7.576949720621E-1
   9.504752376188E-1   7.592172977378E-1
   9.604802401201E-1   7.606258980195E-1
   9.704852426213E-1   7.619223198228E-1
   9.804902451226E-1   7.631081153307E-1
   9.904952476238E-1   7.641848410879E-1
    1.000500250125E0   7.651540571212E-1
    1.010505252626E0   7.660173260892E-1
    1.020510255128E0   7.667762124583E-1
    1.030515257629E0   7.674322817054E-1
    1.040520260130E0   7.679870995473E-1
    1.050525262631E0   7.684422311957E-1
    1.060530265133E0   7.687992406376E-1
    1.070535267634E0   7.690596899410E-1
    1.080540270135E0   7.692251385843E-1
    1.090545272636E0   7.692971428106E-1
    1.100550275138E0   7.692772550050E-1
    1.110555277639E0   7.691670230955E-1
    1.120560280140E0   7.689679899759E-1
    1.130565282641E0   7.686816929514E-1
    1.140570285143E0   7.683096632060E-1
    1.150575287644E0   7.678534252908E-1
    1.160580290145E0   7.673144966334E-1
    1.170585292646E0   7.666943870678E-1
    1.180590295148E0   7.659945983835E-1
    1.190595297649E0   7.652166238954E-1
    1.200600300150E0   7.643619480313E-1
    1.210605302651E0   7.634320459392E-1
    1.220610305153E0   7.624283831117E-1
    1.230615307654E0   7.613524150292E-1
    1.240620310155E0   7.602055868194E-1
    1.250625312656E0   7.589893329345E-1
    1.260630315158E0   7.577050768441E-1
    1.270635317659E0   7.563542307448E-1
    1.280640320160E0   7.549381952852E-1
    1.290645322661E0   7.534583593058E-1
    1.300650325163E0   7.519160995939E-1
    1.310655327664E0   7.503127806536E-1
    1.320660330165E0   7.486497544884E-1
    1.330665332666E0   7.469283603988E-1
    1.340670335168E0   7.451499247926E-1
    1.350675337669E0   7.433157610079E-1
    1.360680340170E0   7.414271691490E-1
    1.370685342671E0   7.394854359341E-1
    1.380690345173E0   7.374918345556E-1
    1.390695347674E0   7.354476245502E-1
    1.400700350175E0   7.333540516823E-1
    1.410705352676E0   7.312123478362E-1
    1.420710355178E0   7.290237309201E-1
    1.430715357679E0   7.267894047793E-1
    1.440720360180E0   7.245105591197E-1
    1.450725362681E0   7.221883694409E-1
    1.460730365183E0   7.198239969778E-1
    1.470735367684E0   7.174185886516E-1
    1.480740370185E0   7.149732770293E-1
    1.490745372686E0   7.124891802915E-1
    1.500750375188E0   7.099674022079E-1
    1.510755377689E0   7.074090321208E-1
    1.520760380190E0   7.048151449359E-1
    1.530765382691E0   7.021868011205E-1
    1.540770385193E0   6.995250467081E-1
    1.550775387694E0   6.968309133105E-1
    1.560780390195E0   6.941054181352E-1
    1.570785392696E0   6.913495640100E-1
    1.580790395198E0   6.885643394129E-1
    1.590795397699E0   6.857507185080E-1
    1.600800400200E0   6.829096611865E-1
    1.610805402701E0   6.800421131135E-1
    1.620810405203E0   6.771490057793E-1
    1.630815407704E0   6.742312565556E-1
    1.640820410205E0   6.712897687569E-1
    1.650825412706E0   6.683254317054E-1
    1.660830415208E0   6.653391208006E-1
    1.670835417709E0   6.623316975932E-1
    1.680840420210E0   6.593040098621E-1
    1.690845422711E0   6.562568916958E-1
    1.700850425213E0   6.531911635769E-1
    1.710855427714E0   6.501076324697E-1
    1.720860430215E0   6.470070919114E-1
    1.730865432716E0   6.438903221064E-1
    1.740870435218E0   6.407580900225E-1
    1.750875437719E0   6.376111494907E-1
    1.760880440220E0   6.344502413075E-1
    1.770885442721E0   6.312760933388E-1
    1.780890445223E0   6.280894206266E-1
    1.790895447724E0   6.248909254981E-1
    1.800900450225E0   6.216812976761E-1
    1.810905452726E0   6.184612143917E-1
    1.820910455228E0   6.152313404983E-1
    1.830915457729E0   6.119923285879E-1
    1.840920460230E0   6.087448191080E-1
    1.850925462731E0   6.054894404808E-1
    1.860930465233E0   6.022268092228E-1
    1.870935467734E0   5.989575300660E-1
    1.880940470235E0   5.956821960803E-1
    1.890945472736E0   5.924013887966E-1
    1.900950475238E0   5.891156783307E-1
    1.910955477739E0   5.858256235080E-1
    1.920960480240E0   5.825317719892E-1
    1.930965482741E0   5.792346603964E-1
    1.940970485243E0   5.759348144392E-1
    1.950975487744E0   5.726327490422E-1
    1.960980490245E0   5.693289684721E-1
    1.970985492746E0   5.660239664653E-1
    1.980990495248E0   5.627182263560E-1
    1.990995497749E0   5.594122212036E-1
    2.001000500250E0   5.561064139214E-1
    2.011005502751E0   5.528012574040E-1
    2.021010505253E0   5.494971946560E-1
    2.031015507754E0   5.461946589190E-1
    2.041020510255E0   5.428940738000E-1
    2.051025512756E0   5.395958533987E-1
    2.061030515258E0   5.363004024344E-1
    2.071035517759E0   5.330081163732E-1
    2.081040520260E0   5.297193815544E-1
    2.091045522761E0   5.264345753163E-1
    2.101050525263E0   5.231540661221E-1
    2.111055527764E0   5.198782136851E-1
    2.121060530265E0   5.166073690927E-1
    2.131065532766E0   5.133418749310E-1
    2.141070535268E0   5.100820654075E-1
    2.151075537769E0   5.068282664744E-1
    2.161080540270E0   5.035807959499E-1
    2.171085542771E0   5.003399636402E-1
    2.181090545273E0   4.971060714592E-1
    2.191095547774E0   4.938794135491E-1
    2.201100550275E0   4.906602763983E-1
    2.211105552776E0   4.874489389606E-1
    2.221110555278E0   4.842456727713E-1
    2.231115557779E0   4.810507420646E-1
    2.241120560280E0   4.778644038882E-1
    2.251125562781E0   4.746869082181E-1
    2.261130565283E0   4.715184980726E-1
    2.271135567784E0   4.683594096242E-1
    2.281140570285E0   4.652098723118E-1
    2.291145572786E0   4.620701089511E-1
    2.301150575288E0   4.589403358442E-1
    2.311155577789E0   4.558207628885E-1
    2.321160580290E0   4.527115936843E-1
    2.331165582791E0   4.496130256409E-1
    2.341170585293E0   4.465252500826E-1
    2.351175587794E0   4.434484523532E-1
    2.361180590295E0   4.403828119190E-1
    2.371185592796E0   4.373285024712E-1
    2.381190595298E0   4.342856920276E-1
    2.391195597799E0   4.312545430322E-1
    2.401200600300E0   4.282352124544E-1
    2.411205602801E0   4.252278518872E-1
    2.421210605303E0   4.222326076436E-1
    2.431215607804E0   4.192496208528E-1
    2.441220610305E0   4.162790275546E-1
    2.451225612806E0   4.133209587929E-1
    2.461230615308E0   4.103755407084E-1
    2.471235617809E0   4.074428946295E-1
    2.481240620310E0   4.045231371627E-1
    2.491245622811E0   4.016163802819E-1
    2.501250625313E0   3.987227314160E-1
    2.511255627814E0   3.958422935360E-1
    2.521260630315E0   3.929751652408E-1
    2.531265632816E0   3.901214408416E-1
    2.541270635318E0   3.872812104458E-1
    2.551275637819E0   3.844545600392E-1
    2.561280640320E0   3.816415715677E-1
    2.571285642821E0   3.788423230172E-1
    2.581290645323E0   3.760568884929E-1
    2.591295647824E0   3.732853382977E-1
    2.601300650325E0   3.705277390090E-1
    2.611305652826E0   3.677841535545E-1
    2.621310655328E0   3.650546412875E-1
    2.631315657829E0   3.623392580607E-1
    2.641320660330E0   3.596380562988E-1
    2.651325662831E0   3.569510850701E-1
    2.661330665333E0   3.542783901580E-1
    2.671335667834E0   3.516200141296E-1
    2.681340670335E0   3.489759964053E-1
    2.691345672836E0   3.463463733261E-1
    2.701350675338E0   3.437311782199E-1
    2.711355677839E0   3.411304414679E-1
    2.721360680340E0   3.385441905684E-1
    2.731365682841E0   3.359724502013E-1
    2.741370685343E0   3.334152422902E-1
    2.751375687844E0   3.308725860641E-1
    2.761380690345E0   3.283444981186E-1
    2.771385692846E0   3.258309924755E-1
    2.781390695348E0   3.233320806415E-1
    2.791395697849E0   3.208477716664E-1
    2.801400700350E0   3.183780721999E-1
    2.811405702851E0   3.159229865479E-1
    2.821410705353E0   3.134825167273E-1
    2.831415707854E0   3.110566625211E-1
    2.841420710355E0   3.086454215307E-1
    2.851425712856E0   3.062487892295E-1
    2.861430715358E0   3.038667590138E-1
    2.871435717859E0   3.014993222538E-1
    2.881440720360E0   2.991464683441E-1
    2.891445722861E0   2.968081847517E-1
    2.901450725363E0   2.944844570654E-1
    2.911455727864E0   2.921752690427E-1
    2.921460730365E0   2.898806026563E-1
    2.931465732866E0   2.876004381403E-1
    2.941470735368E0   2.853347540353E-1
    2.951475737869E0   2.830835272322E-1
    2.961480740370E0   2.808467330162E-1
    2.971485742871E0   2.786243451091E-1
    2.981490745373E0   2.764163357118E-1
    2.991495747874E0   2.742226755449E-1
    3.001500750375E0   2.720433338896E-1
    3.011505752876E0   2.698782786275E-1
    3.021510755378E0   2.677274762793E-1
    3.031515757879E0   2.655908920436E-1
    3.041520760380E0   2.634684898341E-1
    3.051525762881E0   2.613602323170E-1
    3.061530765383E0   2.592660809466E-1
    3.071535767884E0   2.571859960019E-1
    3.081540770385E0   2.551199366204E-1
    3.091545772886E0   2.530678608333E-1
    3.101550775388E0   2.510297255986E-1
    3.111555777889E0   2.490054868346E-1
    3.121560780390E0   2.469950994516E-1
    3.131565782891E0   2.449985173843E-1
    3.141570785393E0   2.430156936225E-1
    3.151575787894E0   2.410465802421E-1
    3.161580790395E0   2.390911284345E-1
    3.171585792896E0   2.371492885366E-1
    3.181590795398E0   2.352210100592E-1
    3.191595797899E0   2.333062417152E-1
    3.201600800400E0   2.314049314476E-1
    3.211605802901E0   2.295170264564E-1
    3.221610805403E0   2.276424732253E-1
    3.231615807904E0   2.257812175477E-1
    3.241620810405E0   2.239332045523E-1
    3.251625812906E0   2.220983787279E-1
    3.261630815408E0   2.202766839484E-1
    3.271635817909E0   2.184680634963E-1
    3.281640820410E0   2.166724600865E-1
    3.291645822911E0   2.148898158892E-1
    3.301650825413E0   2.131200725526E-1
    3.311655827914E0   2.113631712249E-1
    3.321660830415E0   2.096190525758E-1
    3.331665832916E0   2.078876568181E-1
    3.341670835418E0   2.061689237277E-1
    3.351675837919E0   2.044627926648E-1
    3.361680840420E0   2.027692025927E-1
    3.371685842921E0   2.010880920984E-1
    3.381690845423E0   1.994193994104E-1
    3.391695847924E0   1.977630624181E-1
    3.401700850425E0   1.961190186899E-1
    3.411705852926E0   1.944872054907E-1
    3.421710855428E0   1.928675597992E-1
    3.431715857929E0   1.912600183254E-1
    3.441720860430E0   1.896645175270E-1
    3.451725862931E0   1.880809936255E-1
    3.461730865433E0   1.865093826220E-1
    3.471735867934E0   1.849496203133E-1
    3.481740870435E0   1.834016423064E-1
    3.491745872936E0   1.818653840338E-1
    3.501750875438E0   1.803407807676E-1
    3.511755877939E0   1.788277676341E-1
    3.521760880440E0   1.773262796273E-1
    3.531765882941E0   1.758362516222E-1
    3.541770885443E0   1.743576183886E-1
    3.551775887944E0   1.728903146032E-1
    3.561780890445E0   1.714342748630E-1
    3.571785892946E0   1.699894336967E-1
    3.581790895448E0   1.685557255773E-1
    3.591795897949E0   1.671330849332E-1
    3.601800900450E0   1.657214461602E-1
    3.611805902951E0   1.643207436322E-1
    3.621810905453E0   1.629309117119E-1
    3.631815907954E0   1.615518847618E-1
    3.641820910455E0   1.601835971541E-1
    3.651825912956E0   1.588259832808E-1
    3.661830915458E0   1.574789775637E-1
    3.671835917959E0   1.561425144635E-1
    3.681840920460E0   1.548165284893E-1
    3.691845922961E0   1.535009542079E-1
    3.701850925463E0   1.521957262520E-1
    3.711855927964E0   1.509007793292E-1
    3.721860930465E0   1.496160482301E-1
    3.731865932966E0   1.483414678366E-1
    3.741870935468E0   1.470769731296E-1
    3.751875937969E0   1.458224991966E-1
    3.761880940470E0   1.445779812396E-1
    3.771885942971E0   1.433433545817E-1
    3.781890945473E0   1.421185546746E-1
    3.791895947974E0   1.409035171053E-1
    3.801900950475E0   1.396981776029E-1
    3.811905952976E0   1.385024720446E-1
    3.821910955478E0   1.373163364625E-1
    3.831915957979E0   1.361397070495E-1
    3.841920960480E0   1.349725201649E-1
    3.851925962981E0   1.338147123407E-1
    3.861930965483E0   1.326662202864E-1
    3.871935967984E0   1.315269808953E-1
    3.881940970485E0   1.303969312489E-1
    3.891945972986E0   1.292760086223E-1
    3.901950975488E0   1.281641504890E-1
    3.911955977989E0   1.270612945260E-1
    3.921960980490E0   1.259673786176E-1
    3.931965982991E0   1.248823408607E-1
    3.941970985493E0   1.238061195683E-1
    3.951975987994E0   1.227386532743E-1
    3.961980990495E0   1.216798807369E-1
    3.971985992996E0   1.206297409431E-1
    3.981990995498E0   1.195881731117E-1
    3.991995997999E0   1.185551166974E-1
    4.002001000500E0   1.175305113943E-1
    4.012006003002E0   1.165142971387E-1
    4.022011005503E0   1.155064141127E-1
    4.032016008004E0   1.145068027475E-1
    4.042021010505E0   1.135154037257E-1
    4.052026013007E0   1.125321579848E-1
    4.062031015508E0   1.115570067196E-1
    4.072036018009E0   1.105898913846E-1
    4.082041020510E0   1.096307536973E-1
    4.092046023012E0   1.086795356396E-1
    4.102051025513E0   1.077361794608E-1
    4.112056028014E0   1.068006276797E-1
    4.122061030515E0   1.058728230864E-1
    4.132066033017E0   1.049527087445E-1
    4.142071035518E0   1.040402279930E-1
    4.152076038019E0   1.031353244482E-1
    4.162081040520E0   1.022379420052E-1
    4.172086043022E0   1.013480248396E-1
    4.182091045523E0   1.004655174092E-1
    4.192096048024E0   9.959036445516E-2
    4.202101050525E0   9.872251100378E-2
    4.212106053027E0   9.786190236740E-2
    4.222111055528E0   9.700848414582E-2
    4.232116058029E0   9.616220222739E-2
    4.242121060530E0   9.532300279006E-2
    4.252126063032E0   9.449083230237E-2
    4.262131065533E0   9.366563752437E-2
    4.272136068034E0   9.284736550844E-2
    4.282141070535E0   9.203596360010E-2
    4.292146073037E0   9.123137943867E-2
    4.302151075538E0   9.043356095795E-2
    4.312156078039E0   8.964245638677E-2
    4.322161080540E0   8.885801424951E-2
    4.332166083042E0   8.808018336658E-2
    4.342171085543E0   8.730891285477E-2
    4.352176088044E0   8.654415212759E-2
    4.362181090545E0   8.578585089558E-2
    4.372186093047E0   8.503395916653E-2
    4.382191095548E0   8.428842724561E-2
    4.392196098049E0   8.354920573554E-2
    4.402201100550E0   8.281624553661E-2
    4.412206103052E0   8.208949784673E-2
    4.422211105553E0   8.136891416139E-2
    4.432216108054E0   8.065444627359E-2
    4.442221110555E0   7.994604627367E-2
    4.452226113057E0   7.924366654923E-2
    4.462231115558E0   7.854725978481E-2
    4.472236118059E0   7.785677896175E-2
    4.482241120560E0   7.717217735778E-2
    4.492246123062E0   7.649340854678E-2
    4.502251125563E0   7.582042639836E-2
    4.512256128064E0   7.515318507743E-2
    4.522261130565E0   7.449163904381E-2
    4.532266133067E0   7.383574305168E-2
    4.542271135568E0   7.318545214912E-2
    4.552276138069E0   7.254072167751E-2
    4.562281140570E0   7.190150727097E-2
    4.572286143072E0   7.126776485572E-2
    4.582291145573E0   7.063945064948E-2
    4.592296148074E0   7.001652116072E-2
    4.602301150575E0   6.939893318802E-2
    4.612306153077E0   6.878664381930E-2
    4.622311155578E0   6.817961043104E-2
    4.632316158079E0   6.757779068754E-2
    4.642321160580E0   6.698114254007E-2
    4.652326163082E0   6.638962422604E-2
    4.662331165583E0   6.580319426812E-2
    4.672336168084E0   6.522181147339E-2
    4.682341170585E0   6.464543493238E-2
    4.692346173087E0   6.407402401818E-2
    4.702351175588E0   6.350753838549E-2
    4.712356178089E0   6.294593796959E-2
    4.722361180590E0   6.238918298543E-2
    4.732366183092E0   6.183723392655E-2
    4.742371185593E0   6.129005156408E-2
    4.752376188094E0   6.074759694569E-2
    4.762381190595E0   6.020983139453E-2
    4.772386193097E0   5.967671650813E-2
    4.782391195598E0   5.914821415732E-2
    4.792396198099E0   5.862428648513E-2
    4.802401200600E0   5.810489590562E-2
    4.812406203102E0   5.759000510280E-2
    4.822411205603E0   5.707957702941E-2
    4.832416208104E0   5.657357490580E-2
