#             R [au]              u [au]
    0.000000000000E0    1.000000000000E0    0.000000000000E0
   1.000000000000E-2   9.999500000000E-1  -1.000000000000E-2
   2.000000000000E-2   9.998000025000E-1  -1.999900000000E-2
   3.000000000000E-2   9.995500224999E-1  -2.999600007500E-2
   4.000000000000E-2   9.992000849980E-1  -3.999000050000E-2
   5.000000000000E-2   9.987502249888E-1  -4.998000184995E-2
   6.000000000000E-2   9.982004874590E-1  -5.996500509975E-2
   7.000000000000E-2   9.975509273836E-1  -6.994401172408E-2
   8.000000000000E-2   9.968016097200E-1  -7.991602379733E-2
   9.000000000000E-2   9.959526094016E-1  -8.988004409334E-2
   1.000000000000E-1   9.950040113302E-1  -9.983507618515E-2
   1.100000000000E-1   9.939559103677E-1  -1.097801245446E-1
   1.200000000000E-1   9.928084113268E-1  -1.197141946421E-1
   1.300000000000E-1   9.915616289598E-1  -1.296362930456E-1
   1.400000000000E-1   9.902156879479E-1  -1.395454275206E-1
   1.500000000000E-1   9.887707228883E-1  -1.494406071287E-1
   1.600000000000E-1   9.872268782808E-1  -1.593208423272E-1
   1.700000000000E-1   9.855843085137E-1  -1.691851450679E-1
   1.800000000000E-1   9.838431778476E-1  -1.790325288958E-1
   1.900000000000E-1   9.820036603997E-1  -1.888620090478E-1
   2.000000000000E-1   9.800659401262E-1  -1.986726025514E-1
   2.100000000000E-1   9.780302108037E-1  -2.084633283225E-1
   2.200000000000E-1   9.758966760099E-1  -2.182332072641E-1
   2.300000000000E-1   9.736655491035E-1  -2.279812623638E-1
   2.400000000000E-1   9.713370532024E-1  -2.377065187918E-1
   2.500000000000E-1   9.689114211618E-1  -2.474080039978E-1
   2.600000000000E-1   9.663888955508E-1  -2.570847478093E-1
   2.700000000000E-1   9.637697286279E-1  -2.667357825274E-1
   2.800000000000E-1   9.610541823162E-1  -2.763601430245E-1
   2.900000000000E-1   9.582425281768E-1  -2.859568668405E-1
   3.000000000000E-1   9.553350473820E-1  -2.955249942790E-1
   3.100000000000E-1   9.523320306869E-1  -3.050635685031E-1
   3.200000000000E-1   9.492337784003E-1  -3.145716356315E-1
   3.300000000000E-1   9.460406003551E-1  -3.240482448337E-1
   3.400000000000E-1   9.427528158767E-1  -3.334924484251E-1
   3.500000000000E-1   9.393707537517E-1  -3.429033019614E-1
   3.600000000000E-1   9.358947521944E-1  -3.522798643338E-1
   3.700000000000E-1   9.323251588134E-1  -3.616211978625E-1
   3.800000000000E-1   9.286623305769E-1  -3.709263683908E-1
   3.900000000000E-1   9.249066337764E-1  -3.801944453781E-1
   4.000000000000E-1   9.210584439909E-1  -3.894245019936E-1
   4.100000000000E-1   9.171181460488E-1  -3.986156152084E-1
   4.200000000000E-1   9.130861339894E-1  -4.077668658882E-1
   4.300000000000E-1   9.089628110238E-1  -4.168773388848E-1
   4.400000000000E-1   9.047485894944E-1  -4.259461231281E-1
   4.500000000000E-1   9.004438908337E-1  -4.349723117168E-1
   4.600000000000E-1   8.960491455220E-1  -4.439550020096E-1
   4.700000000000E-1   8.915647930446E-1  -4.528932957147E-1
   4.800000000000E-1   8.869912818478E-1  -4.617862989804E-1
   4.900000000000E-1   8.823290692939E-1  -4.706331224839E-1
   5.000000000000E-1   8.775786216156E-1  -4.794328815207E-1
   5.100000000000E-1   8.727404138693E-1  -4.881846960928E-1
   5.200000000000E-1   8.678149298877E-1  -4.968876909967E-1
   5.300000000000E-1   8.628026622312E-1  -5.055409959110E-1
   5.400000000000E-1   8.577041121390E-1  -5.141437454835E-1
   5.500000000000E-1   8.525197894786E-1  -5.226950794177E-1
   5.600000000000E-1   8.472502126949E-1  -5.311941425585E-1
   5.700000000000E-1   8.418959087587E-1  -5.396400849783E-1
   5.800000000000E-1   8.364574131135E-1  -5.480320620616E-1
   5.900000000000E-1   8.309352696222E-1  -5.563692345897E-1
   6.000000000000E-1   8.253300305128E-1  -5.646507688242E-1
   6.100000000000E-1   8.196422563231E-1  -5.728758365908E-1
   6.200000000000E-1   8.138725158443E-1  -5.810436153622E-1
   6.300000000000E-1   8.080213860649E-1  -5.891532883399E-1
   6.400000000000E-1   8.020894521122E-1  -5.972040445361E-1
   6.500000000000E-1   7.960773071943E-1  -6.051950788550E-1
   6.600000000000E-1   7.899855525403E-1  -6.131255921730E-1
   6.700000000000E-1   7.838147973410E-1  -6.209947914188E-1
   6.800000000000E-1   7.775656586869E-1  -6.288018896527E-1
   6.900000000000E-1   7.712387615075E-1  -6.365461061451E-1
   7.000000000000E-1   7.648347385079E-1  -6.442266664548E-1
   7.100000000000E-1   7.583542301065E-1  -6.518428025066E-1
   7.200000000000E-1   7.517978843699E-1  -6.593937526675E-1
   7.300000000000E-1   7.451663569490E-1  -6.668787618236E-1
   7.400000000000E-1   7.384603110129E-1  -6.742970814550E-1
   7.500000000000E-1   7.316804171828E-1  -6.816479697110E-1
   7.600000000000E-1   7.248273534649E-1  -6.889306914844E-1
   7.700000000000E-1   7.179018051823E-1  -6.961445184845E-1
   7.800000000000E-1   7.109044649072E-1  -7.032887293104E-1
   7.900000000000E-1   7.038360323909E-1  -7.103626095230E-1
   8.000000000000E-1   6.966972144940E-1  -7.173654517164E-1
   8.100000000000E-1   6.894887251161E-1  -7.242965555888E-1
   8.200000000000E-1   6.822112851240E-1  -7.311552280121E-1
   8.300000000000E-1   6.748656222796E-1  -7.379407831020E-1
   8.400000000000E-1   6.674524711675E-1  -7.446525422856E-1
   8.500000000000E-1   6.599725731211E-1  -7.512898343702E-1
   8.600000000000E-1   6.524266761487E-1  -7.578519956097E-1
   8.700000000000E-1   6.448155348588E-1  -7.643383697714E-1
   8.800000000000E-1   6.371399103844E-1  -7.707483082015E-1
   8.900000000000E-1   6.294005703068E-1  -7.770811698899E-1
   9.000000000000E-1   6.215982885794E-1  -7.833363215345E-1
   9.100000000000E-1   6.137338454496E-1  -7.895131376042E-1
   9.200000000000E-1   6.058080273813E-1  -7.956110004018E-1
   9.300000000000E-1   5.978216269759E-1  -8.016293001256E-1
   9.400000000000E-1   5.897754428933E-1  -8.075674349304E-1
   9.500000000000E-1   5.816702797719E-1  -8.134248109876E-1
   9.600000000000E-1   5.735069481480E-1  -8.192008425447E-1
   9.700000000000E-1   5.652862643752E-1  -8.248949519841E-1
   9.800000000000E-1   5.570090505421E-1  -8.305065698802E-1
   9.900000000000E-1   5.486761343908E-1  -8.360351350572E-1
    1.000000000000E0   5.402883492335E-1  -8.414800946443E-1
    1.010000000000E0   5.318465338696E-1  -8.468409041319E-1
    1.020000000000E0   5.233515325016E-1  -8.521170274254E-1
    1.030000000000E0   5.148041946507E-1  -8.573079368990E-1
    1.040000000000E0   5.062053750720E-1  -8.624131134487E-1
    1.050000000000E0   4.975559336687E-1  -8.674320465438E-1
    1.060000000000E0   4.888567354066E-1  -8.723642342781E-1
    1.070000000000E0   4.801086502270E-1  -8.772091834205E-1
    1.080000000000E0   4.713125529603E-1  -8.819664094636E-1
    1.090000000000E0   4.624693232380E-1  -8.866354366727E-1
    1.100000000000E0   4.535798454052E-1  -8.912157981332E-1
    1.110000000000E0   4.446450084316E-1  -8.957070357974E-1
    1.120000000000E0   4.356657058232E-1  -9.001087005299E-1
    1.130000000000E0   4.266428355326E-1  -9.044203521531E-1
    1.140000000000E0   4.175772998693E-1  -9.086415594908E-1
    1.150000000000E0   4.084700054094E-1  -9.127719004116E-1
    1.160000000000E0   3.993218629050E-1  -9.168109618706E-1
    1.170000000000E0   3.901337871931E-1  -9.207583399516E-1
    1.180000000000E0   3.809066971042E-1  -9.246136399065E-1
    1.190000000000E0   3.716415153703E-1  -9.283764761956E-1
    1.200000000000E0   3.623391685326E-1  -9.320464725255E-1
    1.210000000000E0   3.530005868489E-1  -9.356232618872E-1
    1.220000000000E0   3.436267042007E-1  -9.391064865926E-1
    1.230000000000E0   3.342184579996E-1  -9.424957983102E-1
    1.240000000000E0   3.247767890936E-1  -9.457908581003E-1
    1.250000000000E0   3.153026416731E-1  -9.489913364483E-1
    1.260000000000E0   3.057969631765E-1  -9.520969132982E-1
    1.270000000000E0   2.962607041954E-1  -9.551072780843E-1
    1.280000000000E0   2.866948183794E-1  -9.580221297624E-1
    1.290000000000E0   2.771002623408E-1  -9.608411768397E-1
    1.300000000000E0   2.674779955593E-1  -9.635641374043E-1
    1.310000000000E0   2.578289802855E-1  -9.661907391530E-1
    1.320000000000E0   2.481541814449E-1  -9.687207194189E-1
    1.330000000000E0   2.384545665417E-1  -9.711538251974E-1
    1.340000000000E0   2.287311055614E-1  -9.734898131715E-1
    1.350000000000E0   2.189847708744E-1  -9.757284497365E-1
    1.360000000000E0   2.092165371385E-1  -9.778695110227E-1
    1.370000000000E0   1.994273812014E-1  -9.799127829186E-1
    1.380000000000E0   1.896182820031E-1  -9.818580610914E-1
    1.390000000000E0   1.797902204781E-1  -9.837051510084E-1
    1.400000000000E0   1.699441794570E-1  -9.854538679556E-1
    1.410000000000E0   1.600811435685E-1  -9.871040370568E-1
    1.420000000000E0   1.502020991407E-1  -9.886554932907E-1
    1.430000000000E0   1.403080341029E-1  -9.901080815074E-1
    1.440000000000E0   1.303999378861E-1  -9.914616564443E-1
    1.450000000000E0   1.204788013248E-1  -9.927160827404E-1
    1.460000000000E0   1.105456165573E-1  -9.938712349495E-1
    1.470000000000E0   1.006013769270E-1  -9.949269975533E-1
    1.480000000000E0   9.064707688258E-2  -9.958832649727E-1
    1.490000000000E0   8.068371187901E-2  -9.967399415783E-1
    1.500000000000E0   7.071227827763E-2  -9.974969417000E-1
    1.510000000000E0   6.073377324672E-2  -9.981541896357E-1
    1.520000000000E0   5.074919466170E-2  -9.987116196587E-1
    1.530000000000E0   4.075954100538E-2  -9.991691760243E-1
    1.540000000000E0   3.076581126809E-2  -9.995268129756E-1
    1.550000000000E0   2.076900484777E-2  -9.997844947476E-1
    1.560000000000E0   1.077012145005E-2  -9.999421955713E-1
    1.570000000000E0   7.701609882652E-4  -9.999998996761E-1
    1.580000000000E0  -9.229876516545E-3  -9.999576012910E-1
    1.590000000000E0  -1.922899103563E-2  -9.998153046457E-1
    1.600000000000E0  -2.922618263253E-2  -9.995730239701E-1
    1.610000000000E0  -3.922045156310E-2  -9.992307834926E-1
    1.620000000000E0  -4.921079837545E-2  -9.987886174378E-1
    1.630000000000E0  -5.919622400991E-2  -9.982465700232E-1
    1.640000000000E0  -6.917572989894E-2  -9.976046954546E-1
    1.650000000000E0  -7.914831806699E-2  -9.968630579208E-1
    1.660000000000E0  -8.911299123030E-2  -9.960217315873E-1
    1.670000000000E0  -9.906875289661E-2  -9.950808005884E-1
    1.680000000000E0  -1.090146074648E-1  -9.940403590194E-1
    1.690000000000E0  -1.189495603247E-1  -9.929005109268E-1
    1.700000000000E0  -1.288726179559E-1  -9.916613702980E-1
    1.710000000000E0  -1.387827880280E-1  -9.903230610499E-1
    1.720000000000E0  -1.486790794991E-1  -9.888857170166E-1
    1.730000000000E0  -1.585605027153E-1  -9.873494819357E-1
    1.740000000000E0  -1.684260695095E-1  -9.857145094345E-1
    1.750000000000E0  -1.782747933004E-1  -9.839809630139E-1
    1.760000000000E0  -1.881056891909E-1  -9.821490160328E-1
    1.770000000000E0  -1.979177740667E-1  -9.802188516901E-1
    1.780000000000E0  -2.077100666949E-1  -9.781906630068E-1
    1.790000000000E0  -2.174815878217E-1  -9.760646528067E-1
    1.800000000000E0  -2.272313602703E-1  -9.738410336958E-1
    1.810000000000E0  -2.369584090393E-1  -9.715200280415E-1
    1.820000000000E0  -2.466617613992E-1  -9.691018679497E-1
    1.830000000000E0  -2.563404469907E-1  -9.665867952423E-1
    1.840000000000E0  -2.659934979207E-1  -9.639750614326E-1
    1.850000000000E0  -2.756199488602E-1  -9.612669277003E-1
    1.860000000000E0  -2.852188371397E-1  -9.584626648653E-1
    1.870000000000E0  -2.947892028465E-1  -9.555625533607E-1
    1.880000000000E0  -3.043300889200E-1  -9.525668832046E-1
    1.890000000000E0  -3.138405412476E-1  -9.494759539712E-1
    1.900000000000E0  -3.233196087602E-1  -9.462900747610E-1
    1.910000000000E0  -3.327663435274E-1  -9.430095641697E-1
    1.920000000000E0  -3.421798008519E-1  -9.396347502562E-1
    1.930000000000E0  -3.515590393645E-1  -9.361659705102E-1
    1.940000000000E0  -3.609031211176E-1  -9.326035718180E-1
    1.950000000000E0  -3.702111116797E-1  -9.289479104282E-1
    1.960000000000E0  -3.794820802284E-1  -9.251993519159E-1
    1.970000000000E0  -3.887150996436E-1  -9.213582711460E-1
    1.980000000000E0  -3.979092466000E-1  -9.174250522360E-1
    1.990000000000E0  -4.070636016601E-1  -9.134000885174E-1
    2.000000000000E0  -4.161772493652E-1  -9.092837824964E-1
    2.010000000000E0  -4.252492783277E-1  -9.050765458136E-1
    2.020000000000E0  -4.342787813219E-1  -9.007787992031E-1
    2.030000000000E0  -4.432648553748E-1  -8.963909724499E-1
    2.040000000000E0  -4.522066018566E-1  -8.919135043475E-1
    2.050000000000E0  -4.611031265699E-1  -8.873468426537E-1
    2.060000000000E0  -4.699535398402E-1  -8.826914440459E-1
    2.070000000000E0  -4.787569566036E-1  -8.779477740753E-1
    2.080000000000E0  -4.875124964965E-1  -8.731163071206E-1
    2.090000000000E0  -4.962192839429E-1  -8.681975263402E-1
    2.100000000000E0  -5.048764482421E-1  -8.631919236245E-1
    2.110000000000E0  -5.134831236560E-1  -8.580999995459E-1
    2.120000000000E0  -5.220384494952E-1  -8.529222633094E-1
    2.130000000000E0  -5.305415702059E-1  -8.476592327012E-1
    2.140000000000E0  -5.389916354544E-1  -8.423114340375E-1
    2.150000000000E0  -5.473878002130E-1  -8.368794021113E-1
    2.160000000000E0  -5.557292248441E-1  -8.313636801391E-1
    2.170000000000E0  -5.640150751842E-1  -8.257648197066E-1
    2.180000000000E0  -5.722445226275E-1  -8.200833807138E-1
    2.190000000000E0  -5.804167442085E-1  -8.143199313185E-1
    2.200000000000E0  -5.885309226845E-1  -8.084750478798E-1
    2.210000000000E0  -5.965862466172E-1  -8.025493149006E-1
    2.220000000000E0  -6.045819104538E-1  -7.965433249687E-1
    2.230000000000E0  -6.125171146080E-1  -7.904576786979E-1
    2.240000000000E0  -6.203910655393E-1  -7.842929846679E-1
    2.250000000000E0  -6.282029758327E-1  -7.780498593632E-1
    2.260000000000E0  -6.359520642775E-1  -7.717289271119E-1
    2.270000000000E0  -6.436375559454E-1  -7.653308200228E-1
    2.280000000000E0  -6.512586822678E-1  -7.588561779224E-1
    2.290000000000E0  -6.588146811129E-1  -7.523056482908E-1
    2.300000000000E0  -6.663047968618E-1  -7.456798861972E-1
    2.310000000000E0  -6.737282804839E-1  -7.389795542343E-1
    2.320000000000E0  -6.810843896122E-1  -7.322053224518E-1
    2.330000000000E0  -6.883723886173E-1  -7.253578682895E-1
    2.340000000000E0  -6.955915486807E-1  -7.184378765099E-1
    2.350000000000E0  -7.027411478684E-1  -7.114460391293E-1
    2.360000000000E0  -7.098204712023E-1  -7.043830553487E-1
    2.370000000000E0  -7.168288107322E-1  -6.972496314839E-1
    2.380000000000E0  -7.237654656065E-1  -6.900464808950E-1
    2.390000000000E0  -7.306297421422E-1  -6.827743239149E-1
    2.400000000000E0  -7.374209538942E-1  -6.754338877772E-1
    2.410000000000E0  -7.441384217243E-1  -6.680259065439E-1
    2.420000000000E0  -7.507814738687E-1  -6.605511210313E-1
    2.430000000000E0  -7.573494460053E-1  -6.530102787366E-1
    2.440000000000E0  -7.638416813204E-1  -6.454041337626E-1
    2.450000000000E0  -7.702575305739E-1  -6.377334467427E-1
    2.460000000000E0  -7.765963521648E-1  -6.299989847646E-1
    2.470000000000E0  -7.828575121949E-1  -6.222015212938E-1
    2.480000000000E0  -7.890403845322E-1  -6.143418360957E-1
    2.490000000000E0  -7.951443508739E-1  -6.064207151586E-1
    2.500000000000E0  -8.011688008080E-1  -5.984389506141E-1
    2.510000000000E0  -8.071131318741E-1  -5.903973406585E-1
    2.520000000000E0  -8.129767496241E-1  -5.822966894727E-1
    2.530000000000E0  -8.187590676813E-1  -5.741378071420E-1
    2.540000000000E0  -8.244595077993E-1  -5.659215095748E-1
    2.550000000000E0  -8.300774999197E-1  -5.576486184214E-1
    2.560000000000E0  -8.356124822289E-1  -5.493199609913E-1
    2.570000000000E0  -8.410639012147E-1  -5.409363701709E-1
    2.580000000000E0  -8.464312117214E-1  -5.324986843403E-1
    2.590000000000E0  -8.517138770042E-1  -5.240077472888E-1
    2.600000000000E0  -8.569113687832E-1  -5.154644081314E-1
    2.610000000000E0  -8.620231672961E-1  -5.068695212232E-1
    2.620000000000E0  -8.670487613500E-1  -4.982239460742E-1
    2.630000000000E0  -8.719876483726E-1  -4.895285472634E-1
    2.640000000000E0  -8.768393344629E-1  -4.807841943523E-1
    2.650000000000E0  -8.816033344396E-1  -4.719917617979E-1
    2.660000000000E0  -8.862791718909E-1  -4.631521288654E-1
    2.670000000000E0  -8.908663792210E-1  -4.542661795401E-1
    2.680000000000E0  -8.953644976974E-1  -4.453348024389E-1
    2.690000000000E0  -8.997730774969E-1  -4.363588907218E-1
    2.700000000000E0  -9.040916777503E-1  -4.273393420023E-1
    2.710000000000E0  -9.083198665864E-1  -4.182770582577E-1
    2.720000000000E0  -9.124572211756E-1  -4.091729457389E-1
    2.730000000000E0  -9.165033277720E-1  -4.000279148799E-1
    2.740000000000E0  -9.204577817544E-1  -3.908428802064E-1
    2.750000000000E0  -9.243201876674E-1  -3.816187602449E-1
    2.760000000000E0  -9.280901592604E-1  -3.723564774302E-1
    2.770000000000E0  -9.317673195268E-1  -3.630569580137E-1
    2.780000000000E0  -9.353513007409E-1  -3.537211319705E-1
    2.790000000000E0  -9.388417444956E-1  -3.443499329065E-1
    2.800000000000E0  -9.422383017374E-1  -3.349442979649E-1
    2.810000000000E0  -9.455406328020E-1  -3.255051677326E-1
    2.820000000000E0  -9.487484074477E-1  -3.160334861462E-1
    2.830000000000E0  -9.518613048888E-1  -3.065302003975E-1
    2.840000000000E0  -9.548790138275E-1  -2.969962608386E-1
    2.850000000000E0  -9.578012324852E-1  -2.874326208872E-1
    2.860000000000E0  -9.606276686324E-1  -2.778402369313E-1
    2.870000000000E0  -9.633580396183E-1  -2.682200682332E-1
    2.880000000000E0  -9.659920723987E-1  -2.585730768336E-1
    2.890000000000E0  -9.685295035634E-1  -2.489002274557E-1
    2.900000000000E0  -9.709700793628E-1  -2.392024874087E-1
    2.910000000000E0  -9.733135557329E-1  -2.294808264907E-1
    2.920000000000E0  -9.755596983200E-1  -2.197362168921E-1
    2.930000000000E0  -9.777082825040E-1  -2.099696330980E-1
    2.940000000000E0  -9.797590934209E-1  -2.001820517913E-1
    2.950000000000E0  -9.817119259841E-1  -1.903744517545E-1
    2.960000000000E0  -9.835665849054E-1  -1.805478137721E-1
    2.970000000000E0  -9.853228847138E-1  -1.707031205324E-1
    2.980000000000E0  -9.869806497749E-1  -1.608413565292E-1
    2.990000000000E0  -9.885397143077E-1  -1.509635079636E-1
    3.000000000000E0  -9.899999224016E-1  -1.410705626452E-1
    3.010000000000E0  -9.913611280320E-1  -1.311635098930E-1
    3.020000000000E0  -9.926231950745E-1  -1.212433404372E-1
    3.030000000000E0  -9.937859973191E-1  -1.113110463194E-1
    3.040000000000E0  -9.948494184825E-1  -1.013676207939E-1
    3.050000000000E0  -9.958133522195E-1  -9.141405822806E-2
    3.060000000000E0  -9.966777021341E-1  -8.145135400295E-2
    3.070000000000E0  -9.974423817891E-1  -7.148050441391E-2
    3.080000000000E0  -9.981073147141E-1  -6.150250657080E-2
    3.090000000000E0  -9.986724344141E-1  -5.151835829833E-2
    3.100000000000E0  -9.991376843753E-1  -4.152905803628E-2
    3.110000000000E0  -9.995030180715E-1  -3.153560473962E-2
    3.120000000000E0  -9.997683989680E-1  -2.153899777867E-2
    3.130000000000E0  -9.999338005258E-1  -1.154023683910E-2
    3.140000000000E0  -9.999992062042E-1  -1.540321822000E-3
    3.150000000000E0  -9.999646094621E-1   8.459747256133E-3
    3.160000000000E0  -9.998300137591E-1   1.845897036339E-2
    3.170000000000E0  -9.995954325547E-1   2.845634755246E-2
    3.180000000000E0  -9.992608893076E-1   3.845087906063E-2
    3.190000000000E0  -9.988264174725E-1   4.844156540976E-2
    3.200000000000E0  -9.982920604975E-1   5.842740750621E-2
    3.210000000000E0  -9.976578718195E-1   6.840740674081E-2
    3.220000000000E0  -9.969239148585E-1   7.838056508867E-2
    3.230000000000E0  -9.960902630118E-1   8.834588520900E-2
    3.240000000000E0  -9.951569996466E-1   9.830237054486E-2
    3.250000000000E0  -9.941242180912E-1   1.082490254228E-1
    3.260000000000E0  -9.929920216260E-1   1.181848551524E-1
