#             R [au]           V(R) [eV]
    0.000000000000E0   -3.000000000000E0
   1.000500250125E-2   -2.970134643108E0
   2.001000500250E-2   -2.940566599397E0
   3.001500750375E-2   -2.911292909078E0
   4.002001000500E-2   -2.882310641830E0
   5.002501250625E-2   -2.853616896499E0
   6.003001500750E-2   -2.825208800817E0
   7.003501750875E-2   -2.797083511107E0
   8.004002001001E-2   -2.769238212001E0
   9.004502251126E-2   -2.741670116161E0
   1.000500250125E-1   -2.714376463995E0
   1.100550275138E-1   -2.687354523383E0
   1.200600300150E-1   -2.660601589404E0
   1.300650325163E-1   -2.634114984066E0
   1.400700350175E-1   -2.607892056035E0
   1.500750375188E-1   -2.581930180372E0
   1.600800400200E-1   -2.556226758269E0
   1.700850425213E-1   -2.530779216792E0
   1.800900450225E-1   -2.505585008617E0
   1.900950475238E-1   -2.480641611782E0
   2.001000500250E-1   -2.455946529430E0
   2.101050525263E-1   -2.431497289560E0
   2.201100550275E-1   -2.407291444782E0
   2.301150575288E-1   -2.383326572068E0
   2.401200600300E-1   -2.359600272513E0
   2.501250625313E-1   -2.336110171093E0
   2.601300650325E-1   -2.312853916427E0
   2.701350675338E-1   -2.289829180543E0
   2.801400700350E-1   -2.267033658643E0
   2.901450725363E-1   -2.244465068876E0
   3.001500750375E-1   -2.222121152105E0
   3.101550775388E-1   -2.199999671683E0
   3.201600800400E-1   -2.178098413231E0
   3.301650825413E-1   -2.156415184412E0
   3.401700850425E-1   -2.134947814715E0
   3.501750875438E-1   -2.113694155238E0
   3.601800900450E-1   -2.092652078469E0
   3.701850925463E-1   -2.071819478078E0
   3.801900950475E-1   -2.051194268702E0
   3.901950975488E-1   -2.030774385738E0
   4.002001000500E-1   -2.010557785139E0
   4.102051025513E-1   -1.990542443204E0
   4.202101050525E-1   -1.970726356379E0
   4.302151075538E-1   -1.951107541056E0
   4.402201100550E-1   -1.931684033374E0
   4.502251125563E-1   -1.912453889021E0
   4.602301150575E-1   -1.893415183042E0
   4.702351175588E-1   -1.874566009647E0
   4.802401200600E-1   -1.855904482015E0
   4.902451225613E-1   -1.837428732111E0
   5.002501250625E-1   -1.819136910495E0
   5.102551275638E-1   -1.801027186139E0
   5.202601300650E-1   -1.783097746244E0
   5.302651325663E-1   -1.765346796055E0
   5.402701350675E-1   -1.747772558688E0
   5.502751375688E-1   -1.730373274944E0
   5.602801400700E-1   -1.713147203140E0
   5.702851425713E-1   -1.696092618930E0
   5.802901450725E-1   -1.679207815135E0
   5.902951475738E-1   -1.662491101570E0
   6.003001500750E-1   -1.645940804877E0
   6.103051525763E-1   -1.629555268357E0
   6.203101550775E-1   -1.613332851802E0
   6.303151575788E-1   -1.597271931334E0
   6.403201600800E-1   -1.581370899240E0
   6.503251625813E-1   -1.565628163812E0
   6.603301650825E-1   -1.550042149187E0
   6.703351675838E-1   -1.534611295193E0
   6.803401700850E-1   -1.519334057186E0
   6.903451725863E-1   -1.504208905901E0
   7.003501750875E-1   -1.489234327296E0
   7.103551775888E-1   -1.474408822402E0
   7.203601800900E-1   -1.459730907174E0
   7.303651825913E-1   -1.445199112337E0
   7.403701850925E-1   -1.430811983247E0
   7.503751875938E-1   -1.416568079739E0
   7.603801900950E-1   -1.402465975985E0
   7.703851925963E-1   -1.388504260351E0
   7.803901950975E-1   -1.374681535257E0
   7.903951975988E-1   -1.360996417036E0
   8.004002001000E-1   -1.347447535795E0
   8.104052026013E-1   -1.334033535278E0
   8.204102051026E-1   -1.320753072733E0
   8.304152076038E-1   -1.307604818772E0
   8.404202101051E-1   -1.294587457243E0
   8.504252126063E-1   -1.281699685097E0
   8.604302151076E-1   -1.268940212256E0
   8.704352176088E-1   -1.256307761484E0
   8.804402201101E-1   -1.243801068263E0
   8.904452226113E-1   -1.231418880661E0
   9.004502251126E-1   -1.219159959210E0
   9.104552276138E-1   -1.207023076780E0
   9.204602301151E-1   -1.195007018458E0
   9.304652326163E-1   -1.183110581427E0
   9.404702351176E-1   -1.171332574841E0
   9.504752376188E-1   -1.159671819712E0
   9.604802401201E-1   -1.148127148788E0
   9.704852426213E-1   -1.136697406436E0
   9.804902451226E-1   -1.125381448529E0
   9.904952476238E-1   -1.114178142329E0
    1.000500250125E0   -1.103086366375E0
    1.010505252626E0   -1.092105010370E0
    1.020510255128E0   -1.081232975071E0
    1.030515257629E0   -1.070469172176E0
    1.040520260130E0   -1.059812524220E0
    1.050525262631E0   -1.049261964462E0
    1.060530265133E0   -1.038816436781E0
    1.070535267634E0   -1.028474895571E0
    1.080540270135E0   -1.018236305634E0
    1.090545272636E0   -1.008099642078E0
    1.100550275138E0  -9.980638902138E-1
    1.110555277639E0  -9.881280454531E-1
    1.120560280140E0  -9.782911132089E-1
    1.130565282641E0  -9.685521087955E-1
    1.140570285143E0  -9.589100573297E-1
    1.150575287644E0  -9.493639936332E-1
    1.160580290145E0  -9.399129621365E-1
    1.170585292646E0  -9.305560167826E-1
    1.180590295148E0  -9.212922209329E-1
    1.190595297649E0  -9.121206472729E-1
    1.200600300150E0  -9.030403777198E-1
    1.210605302651E0  -8.940505033304E-1
    1.220610305153E0  -8.851501242099E-1
    1.230615307654E0  -8.763383494224E-1
    1.240620310155E0  -8.676142969012E-1
    1.250625312656E0  -8.589770933607E-1
    1.260630315158E0  -8.504258742090E-1
    1.270635317659E0  -8.419597834612E-1
    1.280640320160E0  -8.335779736540E-1
    1.290645322661E0  -8.252796057605E-1
    1.300650325163E0  -8.170638491066E-1
    1.310655327664E0  -8.089298812876E-1
    1.320660330165E0  -8.008768880858E-1
    1.330665332666E0  -7.929040633895E-1
    1.340670335168E0  -7.850106091114E-1
    1.350675337669E0  -7.771957351097E-1
    1.360680340170E0  -7.694586591084E-1
    1.370685342671E0  -7.617986066191E-1
    1.380690345173E0  -7.542148108636E-1
    1.390695347674E0  -7.467065126971E-1
    1.400700350175E0  -7.392729605320E-1
    1.410705352676E0  -7.319134102631E-1
    1.420710355178E0  -7.246271251926E-1
    1.430715357679E0  -7.174133759567E-1
    1.440720360180E0  -7.102714404528E-1
    1.450725362681E0  -7.032006037663E-1
    1.460730365183E0  -6.962001581003E-1
    1.470735367684E0  -6.892694027037E-1
    1.480740370185E0  -6.824076438015E-1
    1.490745372686E0  -6.756141945256E-1
    1.500750375188E0  -6.688883748453E-1
    1.510755377689E0  -6.622295115001E-1
    1.520760380190E0  -6.556369379317E-1
    1.530765382691E0  -6.491099942174E-1
    1.540770385193E0  -6.426480270042E-1
    1.550775387694E0  -6.362503894434E-1
    1.560780390195E0  -6.299164411257E-1
    1.570785392696E0  -6.236455480169E-1
    1.580790395198E0  -6.174370823950E-1
    1.590795397699E0  -6.112904227870E-1
    1.600800400200E0  -6.052049539066E-1
    1.610805402701E0  -5.991800665929E-1
    1.620810405203E0  -5.932151577491E-1
    1.630815407704E0  -5.873096302825E-1
    1.640820410205E0  -5.814628930443E-1
    1.650825412706E0  -5.756743607710E-1
    1.660830415208E0  -5.699434540250E-1
    1.670835417709E0  -5.642695991374E-1
    1.680840420210E0  -5.586522281502E-1
    1.690845422711E0  -5.530907787595E-1
    1.700850425213E0  -5.475846942591E-1
    1.710855427714E0  -5.421334234849E-1
    1.720860430215E0  -5.367364207598E-1
    1.730865432716E0  -5.313931458388E-1
    1.740870435218E0  -5.261030638553E-1
    1.750875437719E0  -5.208656452673E-1
    1.760880440220E0  -5.156803658044E-1
    1.770885442721E0  -5.105467064155E-1
    1.780890445223E0  -5.054641532164E-1
    1.790895447724E0  -5.004321974391E-1
    1.800900450225E0  -4.954503353802E-1
    1.810905452726E0  -4.905180683508E-1
    1.820910455228E0  -4.856349026264E-1
    1.830915457729E0  -4.808003493977E-1
    1.840920460230E0  -4.760139247215E-1
    1.850925462731E0  -4.712751494724E-1
    1.860930465233E0  -4.665835492946E-1
    1.870935467734E0  -4.619386545548E-1
    1.880940470235E0  -4.573400002946E-1
    1.890945472736E0  -4.527871261847E-1
    1.900950475238E0  -4.482795764782E-1
    1.910955477739E0  -4.438168999652E-1
    1.920960480240E0  -4.393986499278E-1
    1.930965482741E0  -4.350243840952E-1
    1.940970485243E0  -4.306936645993E-1
    1.950975487744E0  -4.264060579312E-1
    1.960980490245E0  -4.221611348975E-1
    1.970985492746E0  -4.179584705776E-1
    1.980990495248E0  -4.137976442810E-1
    1.990995497749E0  -4.096782395052E-1
    2.001000500250E0  -4.055998438940E-1
    2.011005502751E0  -4.015620491962E-1
    2.021010505253E0  -3.975644512251E-1
    2.031015507754E0  -3.936066498173E-1
    2.041020510255E0  -3.896882487933E-1
    2.051025512756E0  -3.858088559177E-1
    2.061030515258E0  -3.819680828597E-1
    2.071035517759E0  -3.781655451544E-1
    2.081040520260E0  -3.744008621643E-1
    2.091045522761E0  -3.706736570413E-1
    2.101050525263E0  -3.669835566886E-1
    2.111055527764E0  -3.633301917239E-1
    2.121060530265E0  -3.597131964421E-1
    2.131065532766E0  -3.561322087786E-1
    2.141070535268E0  -3.525868702733E-1
    2.151075537769E0  -3.490768260346E-1
    2.161080540270E0  -3.456017247039E-1
    2.171085542771E0  -3.421612184203E-1
    2.181090545273E0  -3.387549627861E-1
    2.191095547774E0  -3.353826168319E-1
    2.201100550275E0  -3.320438429829E-1
    2.211105552776E0  -3.287383070247E-1
    2.221110555278E0  -3.254656780703E-1
    2.231115557779E0  -3.222256285264E-1
    2.241120560280E0  -3.190178340612E-1
    2.251125562781E0  -3.158419735715E-1
    2.261130565283E0  -3.126977291508E-1
    2.271135567784E0  -3.095847860573E-1
    2.281140570285E0  -3.065028326827E-1
    2.291145572786E0  -3.034515605205E-1
    2.301150575288E0  -3.004306641357E-1
    2.311155577789E0  -2.974398411338E-1
    2.321160580290E0  -2.944787921307E-1
    2.331165582791E0  -2.915472207227E-1
    2.341170585293E0  -2.886448334568E-1
    2.351175587794E0  -2.857713398014E-1
    2.361180590295E0  -2.829264521172E-1
    2.371185592796E0  -2.801098856283E-1
    2.381190595298E0  -2.773213583939E-1
    2.391195597799E0  -2.745605912798E-1
    2.401200600300E0  -2.718273079308E-1
    2.411205602801E0  -2.691212347427E-1
    2.421210605303E0  -2.664421008351E-1
    2.431215607804E0  -2.637896380243E-1
    2.441220610305E0  -2.611635807963E-1
    2.451225612806E0  -2.585636662804E-1
    2.461230615308E0  -2.559896342228E-1
    2.471235617809E0  -2.534412269606E-1
    2.481240620310E0  -2.509181893958E-1
    2.491245622811E0  -2.484202689701E-1
    2.501250625313E0  -2.459472156395E-1
    2.511255627814E0  -2.434987818489E-1
    2.521260630315E0  -2.410747225080E-1
    2.531265632816E0  -2.386747949663E-1
    2.541270635318E0  -2.362987589887E-1
    2.551275637819E0  -2.339463767319E-1
    2.561280640320E0  -2.316174127203E-1
    2.571285642821E0  -2.293116338226E-1
    2.581290645323E0  -2.270288092281E-1
    2.591295647824E0  -2.247687104239E-1
    2.601300650325E0  -2.225311111723E-1
    2.611305652826E0  -2.203157874874E-1
    2.621310655328E0  -2.181225176133E-1
    2.631315657829E0  -2.159510820017E-1
    2.641320660330E0  -2.138012632900E-1
    2.651325662831E0  -2.116728462793E-1
    2.661330665333E0  -2.095656179132E-1
    2.671335667834E0  -2.074793672561E-1
    2.681340670335E0  -2.054138854725E-1
    2.691345672836E0  -2.033689658057E-1
    2.701350675338E0  -2.013444035576E-1
    2.711355677839E0  -1.993399960674E-1
    2.721360680340E0  -1.973555426923E-1
    2.731365682841E0  -1.953908447866E-1
    2.741370685343E0  -1.934457056823E-1
    2.751375687844E0  -1.915199306691E-1
    2.761380690345E0  -1.896133269753E-1
    2.771385692846E0  -1.877257037482E-1
    2.781390695348E0  -1.858568720347E-1
    2.791395697849E0  -1.840066447634E-1
    2.801400700350E0  -1.821748367246E-1
    2.811405702851E0  -1.803612645528E-1
    2.821410705353E0  -1.785657467076E-1
    2.831415707854E0  -1.767881034563E-1
    2.841420710355E0  -1.750281568549E-1
    2.851425712856E0  -1.732857307314E-1
    2.861430715358E0  -1.715606506672E-1
    2.871435717859E0  -1.698527439803E-1
    2.881440720360E0  -1.681618397076E-1
    2.891445722861E0  -1.664877685881E-1
    2.901450725363E0  -1.648303630458E-1
    2.911455727864E0  -1.631894571728E-1
    2.921460730365E0  -1.615648867130E-1
    2.931465732866E0  -1.599564890453E-1
    2.941470735368E0  -1.583641031678E-1
    2.951475737869E0  -1.567875696812E-1
    2.961480740370E0  -1.552267307729E-1
    2.971485742871E0  -1.536814302017E-1
    2.981490745373E0  -1.521515132815E-1
    2.991495747874E0  -1.506368268662E-1
    3.001500750375E0  -1.491372193344E-1
    3.011505752876E0  -1.476525405740E-1
    3.021510755378E0  -1.461826419672E-1
    3.031515757879E0  -1.447273763760E-1
    3.041520760380E0  -1.432865981268E-1
    3.051525762881E0  -1.418601629965E-1
    3.061530765383E0  -1.404479281976E-1
    3.071535767884E0  -1.390497523642E-1
    3.081540770385E0  -1.376654955375E-1
    3.091545772886E0  -1.362950191522E-1
    3.101550775388E0  -1.349381860223E-1
    3.111555777889E0  -1.335948603277E-1
    3.121560780390E0  -1.322649076001E-1
    3.131565782891E0  -1.309481947102E-1
    3.141570785393E0  -1.296445898538E-1
    3.151575787894E0  -1.283539625387E-1
    3.161580790395E0  -1.270761835722E-1
    3.171585792896E0  -1.258111250472E-1
    3.181590795398E0  -1.245586603304E-1
    3.191595797899E0  -1.233186640488E-1
    3.201600800400E0  -1.220910120777E-1
    3.211605802901E0  -1.208755815280E-1
    3.221610805403E0  -1.196722507341E-1
    3.231615807904E0  -1.184808992413E-1
    3.241620810405E0  -1.173014077944E-1
    3.251625812906E0  -1.161336583252E-1
    3.261630815408E0  -1.149775339409E-1
    3.271635817909E0  -1.138329189123E-1
    3.281640820410E0  -1.126996986625E-1
    3.291645822911E0  -1.115777597551E-1
    3.301650825413E0  -1.104669898830E-1
    3.311655827914E0  -1.093672778571E-1
    3.321660830415E0  -1.082785135953E-1
    3.331665832916E0  -1.072005881112E-1
    3.341670835418E0  -1.061333935036E-1
    3.351675837919E0  -1.050768229452E-1
    3.361680840420E0  -1.040307706724E-1
    3.371685842921E0  -1.029951319745E-1
    3.381690845423E0  -1.019698031829E-1
    3.391695847924E0  -1.009546816615E-1
    3.401700850425E0  -9.994966579561E-2
    3.411705852926E0  -9.895465498220E-2
    3.421710855428E0  -9.796954961982E-2
    3.431715857929E0  -9.699425109850E-2
    3.441720860430E0  -9.602866179000E-2
    3.451725862931E0  -9.507268503793E-2
    3.461730865433E0  -9.412622514815E-2
    3.471735867934E0  -9.318918737917E-2
    3.481740870435E0  -9.226147793265E-2
    3.491745872936E0  -9.134300394404E-2
    3.501750875438E0  -9.043367347325E-2
    3.511755877939E0  -8.953339549548E-2
    3.521760880440E0  -8.864207989207E-2
    3.531765882941E0  -8.775963744153E-2
    3.541770885443E0  -8.688597981056E-2
    3.551775887944E0  -8.602101954525E-2
    3.561780890445E0  -8.516467006227E-2
    3.571785892946E0  -8.431684564027E-2
    3.581790895448E0  -8.347746141126E-2
    3.591795897949E0  -8.264643335210E-2
    3.601800900450E0  -8.182367827613E-2
    3.611805902951E0  -8.100911382482E-2
    3.621810905453E0  -8.020265845953E-2
    3.631815907954E0  -7.940423145334E-2
    3.641820910455E0  -7.861375288298E-2
    3.651825912956E0  -7.783114362082E-2
    3.661830915458E0  -7.705632532697E-2
    3.671835917959E0  -7.628922044142E-2
    3.681840920460E0  -7.552975217625E-2
    3.691845922961E0  -7.477784450802E-2
    3.701850925463E0  -7.403342217007E-2
    3.711855927964E0  -7.329641064506E-2
    3.721860930465E0  -7.256673615746E-2
    3.731865932966E0  -7.184432566618E-2
    3.741870935468E0  -7.112910685729E-2
    3.751875937969E0  -7.042100813672E-2
    3.761880940470E0  -6.971995862316E-2
    3.771885942971E0  -6.902588814090E-2
    3.781890945473E0  -6.833872721286E-2
    3.791895947974E0  -6.765840705361E-2
    3.801900950475E0  -6.698485956248E-2
    3.811905952976E0  -6.631801731675E-2
    3.821910955478E0  -6.565781356491E-2
    3.831915957979E0  -6.500418221996E-2
    3.841920960480E0  -6.435705785280E-2
    3.851925962981E0  -6.371637568570E-2
    3.861930965483E0  -6.308207158580E-2
    3.871935967984E0  -6.245408205867E-2
    3.881940970485E0  -6.183234424199E-2
    3.891945972986E0  -6.121679589924E-2
    3.901950975488E0  -6.060737541347E-2
    3.911955977989E0  -6.000402178113E-2
    3.921960980490E0  -5.940667460598E-2
    3.931965982991E0  -5.881527409303E-2
    3.941970985493E0  -5.822976104253E-2
    3.951975987994E0  -5.765007684411E-2
    3.961980990495E0  -5.707616347084E-2
    3.971985992996E0  -5.650796347349E-2
    3.981990995498E0  -5.594541997469E-2
    3.991995997999E0  -5.538847666336E-2
    4.002001000500E0  -5.483707778894E-2
    4.012006003002E0  -5.429116815591E-2
    4.022011005503E0  -5.375069311823E-2
    4.032016008004E0  -5.321559857384E-2
    4.042021010505E0  -5.268583095930E-2
    4.052026013007E0  -5.216133724438E-2
    4.062031015508E0  -5.164206492680E-2
    4.072036018009E0  -5.112796202690E-2
    4.082041020510E0  -5.061897708254E-2
    4.092046023012E0  -5.011505914385E-2
    4.102051025513E0  -4.961615776819E-2
    4.112056028014E0  -4.912222301507E-2
    4.122061030515E0  -4.863320544118E-2
    4.132066033017E0  -4.814905609541E-2
    4.142071035518E0  -4.766972651398E-2
    4.152076038019E0  -4.719516871555E-2
    4.162081040520E0  -4.672533519646E-2
    4.172086043022E0  -4.626017892595E-2
    4.182091045523E0  -4.579965334145E-2
    4.192096048024E0  -4.534371234393E-2
    4.202101050525E0  -4.489231029327E-2
    4.212106053027E0  -4.444540200374E-2
    4.222111055528E0  -4.400294273939E-2
    4.232116058029E0  -4.356488820965E-2
    4.242121060530E0  -4.313119456487E-2
    4.252126063032E0  -4.270181839192E-2
    4.262131065533E0  -4.227671670985E-2
    4.272136068034E0  -4.185584696560E-2
    4.282141070535E0  -4.143916702972E-2
    4.292146073037E0  -4.102663519217E-2
    4.302151075538E0  -4.061821015814E-2
    4.312156078039E0  -4.021385104391E-2
    4.322161080540E0  -3.981351737277E-2
    4.332166083042E0  -3.941716907095E-2
    4.342171085543E0  -3.902476646362E-2
    4.352176088044E0  -3.863627027094E-2
    4.362181090545E0  -3.825164160407E-2
    4.372186093047E0  -3.787084196133E-2
    4.382191095548E0  -3.749383322434E-2
    4.392196098049E0  -3.712057765418E-2
    4.402201100550E0  -3.675103788762E-2
    4.412206103052E0  -3.638517693340E-2
    4.422211105553E0  -3.602295816850E-2
    4.432216108054E0  -3.566434533450E-2
    4.442221110555E0  -3.530930253392E-2
    4.452226113057E0  -3.495779422666E-2
    4.462231115558E0  -3.460978522642E-2
    4.472236118059E0  -3.426524069717E-2
    4.482241120560E0  -3.392412614970E-2
    4.492246123062E0  -3.358640743813E-2
    4.502251125563E0  -3.325205075651E-2
    4.512256128064E0  -3.292102263543E-2
    4.522261130565E0  -3.259328993868E-2
    4.532266133067E0  -3.226881985992E-2
    4.542271135568E0  -3.194757991938E-2
    4.552276138069E0  -3.162953796067E-2
    4.562281140570E0  -3.131466214750E-2
    4.572286143072E0  -3.100292096050E-2
    4.582291145573E0  -3.069428319411E-2
    4.592296148074E0  -3.038871795340E-2
    4.602301150575E0  -3.008619465101E-2
    4.612306153077E0  -2.978668300409E-2
    4.622311155578E0  -2.949015303124E-2
    4.632316158079E0  -2.919657504955E-2
    4.642321160580E0  -2.890591967159E-2
    4.652326163082E0  -2.861815780250E-2
    4.662331165583E0  -2.833326063704E-2
    4.672336168084E0  -2.805119965676E-2
    4.682341170585E0  -2.777194662710E-2
    4.692346173087E0  -2.749547359456E-2
    4.702351175588E0  -2.722175288396E-2
    4.712356178089E0  -2.695075709559E-2
    4.722361180590E0  -2.668245910254E-2
    4.732366183092E0  -2.641683204792E-2
    4.742371185593E0  -2.615384934223E-2
    4.752376188094E0  -2.589348466066E-2
    4.762381190595E0  -2.563571194047E-2
    4.772386193097E0  -2.538050537838E-2
    4.782391195598E0  -2.512783942797E-2
    4.792396198099E0  -2.487768879716E-2
    4.802401200600E0  -2.463002844563E-2
    4.812406203102E0  -2.438483358237E-2
    4.822411205603E0  -2.414207966314E-2
    4.832416208104E0  -2.390174238806E-2
    4.842421210605E0  -2.366379769914E-2
    4.852426213107E0  -2.342822177790E-2
