#  n    E_n (l=0) [a.u.]   E_n (l=10) [a.u.]
   0  -7.447771143449E-1  -7.437242202496E-1
   1  -7.323695096336E-1  -7.313230973320E-1
   2  -7.200661270541E-1  -7.190262104274E-1
   3  -7.078669666066E-1  -7.068335596286E-1
   4  -6.957720282909E-1  -6.947451450309E-1
   5  -6.837813121070E-1  -6.827609667322E-1
   6  -6.718948180551E-1  -6.708810248334E-1
   7  -6.601125461350E-1  -6.591053194382E-1
   8  -6.484344963467E-1  -6.474338506533E-1
   9  -6.368606686904E-1  -6.358666185884E-1
  10  -6.253910631659E-1  -6.244036233565E-1
  11  -6.140256797733E-1  -6.130448650738E-1
  12  -6.027645185126E-1  -6.017903438598E-1
  13  -5.916075793837E-1  -5.906400598376E-1
  14  -5.805548623867E-1  -5.795940131339E-1
  15  -5.696063675216E-1  -5.686522038789E-1
  16  -5.587620947883E-1  -5.578146322070E-1
  17  -5.480220441869E-1  -5.470812982561E-1
  18  -5.373862157173E-1  -5.364522021686E-1
  19  -5.268546093797E-1  -5.259273440909E-1
  20  -5.164272251741E-1  -5.155067241741E-1
  21  -5.061040631002E-1  -5.051903425731E-1
  22  -4.958851231549E-1  -4.949781994449E-1
  23  -4.857704053455E-1  -4.848702949600E-1
  24  -4.757599097074E-1  -4.748666293254E-1
  25  -4.658536361622E-1  -4.649672026536E-1
  26  -4.560515843533E-1  -4.551720147531E-1
  27  -4.463537549922E-1  -4.454810663692E-1
  28  -4.367601512425E-1  -4.358943609702E-1
  29  -4.272707683322E-1  -4.264118951875E-1
  30  -4.178855829758E-1  -4.170336453840E-1
  31  -4.086046208531E-1  -4.077596292853E-1
  32  -3.994280328348E-1  -3.985899988601E-1
  33  -3.903557335697E-1  -3.895247152582E-1
  34  -3.813869225272E-1  -3.805629903644E-1
  35  -3.725216998482E-1  -3.717047046131E-1
  36  -3.637637185610E-1  -3.629533600869E-1
  37  -3.551143795980E-1  -3.543112082231E-1
  38  -3.465605625252E-1  -3.457661087788E-1
  39  -3.380909238445E-1  -3.373041534560E-1
  40  -3.297436007853E-1  -3.289587193813E-1
  41  -3.215778767737E-1  -3.207946911328E-1
  42  -3.135137219033E-1  -3.127493679349E-1
  43  -3.053603606598E-1  -3.046241643356E-1
  44  -2.971878738556E-1  -2.964485944003E-1
  45  -2.895234336413E-1  -2.887191469572E-1
  46  -2.825864250282E-1  -2.817851078077E-1
  47  -2.750897900077E-1  -2.744175770411E-1
  48  -2.667234510093E-1  -2.661232727354E-1
  49  -2.581838099502E-1  -2.575680917824E-1
  50  -2.514525086492E-1  -2.503976266569E-1
  51  -2.471375785654E-1  -2.463279525721E-1
  52  -2.391807084750E-1  -2.386576301134E-1
  53  -2.305040200610E-1  -2.300190895294E-1
  54  -2.218299637347E-1  -2.213605117327E-1
  55  -2.133070489063E-1  -2.128316657145E-1
  56  -2.083388623877E-1  -2.067840297346E-1
  57  -2.045897789780E-1  -2.040889247696E-1
  58  -1.963869976262E-1  -1.959536099088E-1
  59  -1.882650110282E-1  -1.878442139462E-1
  60  -1.803050005395E-1  -1.798940650000E-1
  61  -1.725207307721E-1  -1.721186896141E-1
  62  -1.649208621618E-1  -1.645263281911E-1
  63  -1.576934710255E-1  -1.571529555271E-1
  64  -1.571228123410E-1  -1.555375933716E-1
  65  -1.502483192498E-1  -1.498697689789E-1
  66  -1.432104550259E-1  -1.428415318730E-1
  67  -1.363591708372E-1  -1.359981618735E-1
  68  -1.296975625140E-1  -1.293440945417E-1
  69  -1.232261424717E-1  -1.228799914746E-1
  70  -1.169447164469E-1  -1.166056949657E-1
  71  -1.108527400003E-1  -1.105206530604E-1
  72  -1.049497241137E-1  -1.046242088679E-1
  73  -9.924661575396E-2  -9.891812930169E-2
  74  -9.833134444190E-2  -9.651549963715E-2
  75  -9.369620152307E-2  -9.338314062551E-2
  76  -8.835065786694E-2  -8.804529634571E-2
  77  -8.318626987842E-2  -8.288748125752E-2
  78  -7.820207045940E-2  -7.790967125719E-2
  79  -7.339623022651E-2  -7.311011677057E-2
  80  -6.876671922884E-2  -6.848681013583E-2
  81  -6.431140165459E-2  -6.403762718461E-2
  82  -6.002806809821E-2  -5.976036708332E-2
  83  -5.591445376404E-2  -5.565277240159E-2
  84  -5.196825188375E-2  -5.171254306133E-2
  85  -4.818712507807E-2  -4.793734770429E-2
  86  -4.456871620111E-2  -4.432483394170E-2
  87  -4.111066140224E-2  -4.087263901146E-2
  88  -3.781061708218E-2  -3.757840531678E-2
  89  -3.466639965066E-2  -3.443982584969E-2
  90  -3.169047847633E-2  -3.145505460999E-2
  91  -3.151393655197E-2  -2.962368353181E-2
  92  -2.883244528292E-2  -2.861636956728E-2
  93  -2.614069022077E-2  -2.593181013535E-2
  94  -2.359469507970E-2  -2.339182531312E-2
  95  -2.119238800673E-2  -2.099547456613E-2
  96  -1.893151883398E-2  -1.874058375033E-2
  97  -1.680983181434E-2  -1.662492163206E-2
  98  -1.482509127649E-2  -1.464626921861E-2
  99  -1.297508941570E-2  -1.280243447031E-2
 100  -1.125764997968E-2  -1.109125797391E-2
 101  -9.670630566842E-3  -9.510616257040E-3
 102  -8.211924285495E-3  -8.058424329131E-3
 103  -6.879461034490E-3  -6.732638001324E-3
 104  -5.671208516130E-3  -5.531256299233E-3
 105  -4.585173037883E-3  -4.452324280336E-3
 106  -3.619400137096E-3  -3.493936706221E-3
 107  -2.771975052472E-3  -2.654243353952E-3
 108  -2.041023060601E-3  -1.931457495985E-3
 109  -1.424709692627E-3  -1.323870856826E-3
 110  -9.212408439964E-4  -8.298831406711E-4
 111  -5.288627884326E-4  -4.480695617800E-4
 112  -2.458597757580E-4  -1.773678950874E-4
 113  -6.897977472684E-5  -1.458523749819E-5
 114